SpectraSuite Data File
++++++++++++++++++++++++++++++++++++
Date: Thu May 04 17:48:13 BRT 2017
User: aluno
Dark Spectrum Present: No
Reference Spectrum Present: No
Number of Sampled Component Spectra: 1
Spectrometers: USB2+H08582
Integration Time (usec): 100000 (USB2+H08582)
Spectra Averaged: 1 (USB2+H08582)
Boxcar Smoothing: 0 (USB2+H08582)
Correct for Electrical Dark: No (USB2+H08582)
Strobe/Lamp Enabled: No (USB2+H08582)
Correct for Detector Non-linearity: No (USB2+H08582)
Correct for Stray Light: No (USB2+H08582)
Number of Pixels in Processed Spectrum: 2048
>>>>>Begin Processed Spectral Data<<<<<
0,00	411,93
1,00	411,93
2,00	411,93
3,00	411,93
4,00	365,12
5,00	395,55
6,00	330,02
7,00	367,46
8,00	327,68
9,00	271,50
10,00	416,62
11,00	266,82
12,00	320,65
13,00	325,33
14,00	353,42
15,00	332,36
16,00	318,31
17,00	320,65
18,00	353,42
19,00	346,40
20,00	418,96
21,00	390,87
22,00	367,46
23,00	386,19
24,00	409,59
25,00	491,51
26,00	449,38
27,00	535,98
28,00	496,19
29,00	535,98
30,00	510,24
31,00	526,62
32,00	505,56
33,00	463,43
34,00	526,62
35,00	535,98
36,00	538,32
37,00	533,64
38,00	582,79
39,00	610,88
40,00	535,98
41,00	582,79
42,00	566,41
43,00	543,00
44,00	554,71
45,00	503,22
46,00	559,39
47,00	461,09
48,00	535,98
49,00	538,32
50,00	580,45
51,00	587,47
52,00	573,43
53,00	554,71
54,00	526,62
55,00	540,66
56,00	521,94
57,00	547,69
58,00	587,47
59,00	526,62
60,00	582,79
61,00	533,64
62,00	568,75
63,00	484,49
64,00	493,85
65,00	552,37
66,00	557,05
67,00	524,28
68,00	500,87
69,00	587,47
70,00	524,28
71,00	596,84
72,00	573,43
73,00	566,41
74,00	559,39
75,00	552,37
76,00	524,28
77,00	514,92
78,00	512,58
79,00	573,43
80,00	543,00
81,00	465,77
82,00	538,32
83,00	463,43
84,00	524,28
85,00	521,94
86,00	519,60
87,00	547,69
88,00	596,84
89,00	535,98
90,00	550,03
91,00	531,30
92,00	606,20
93,00	582,79
94,00	517,26
95,00	557,05
96,00	514,92
97,00	540,66
98,00	535,98
99,00	510,24
100,00	538,32
101,00	533,64
102,00	543,00
103,00	571,09
104,00	568,75
105,00	528,96
106,00	580,45
107,00	517,26
108,00	535,98
109,00	596,84
110,00	493,85
111,00	463,43
112,00	568,75
113,00	493,85
114,00	519,60
115,00	524,28
116,00	535,98
117,00	512,58
118,00	524,28
119,00	503,22
120,00	503,22
121,00	550,03
122,00	575,77
123,00	585,13
124,00	589,82
125,00	526,62
126,00	521,94
127,00	538,32
128,00	571,09
129,00	564,07
130,00	568,75
131,00	566,41
132,00	564,07
133,00	528,96
134,00	596,84
135,00	575,77
136,00	538,32
137,00	552,37
138,00	456,40
139,00	554,71
140,00	545,34
141,00	538,32
142,00	589,82
143,00	552,37
144,00	545,34
145,00	535,98
146,00	496,19
147,00	505,56
148,00	543,00
149,00	510,24
150,00	519,60
151,00	580,45
152,00	608,54
153,00	568,75
154,00	594,50
155,00	589,82
156,00	566,41
157,00	535,98
158,00	657,69
159,00	582,79
160,00	533,64
161,00	538,32
162,00	540,66
163,00	559,39
164,00	578,11
165,00	538,32
166,00	540,66
167,00	526,62
168,00	510,24
169,00	589,82
170,00	564,07
171,00	503,22
172,00	557,05
173,00	566,41
174,00	554,71
175,00	538,32
176,00	582,79
177,00	582,79
178,00	517,26
179,00	557,05
180,00	557,05
181,00	627,26
182,00	566,41
183,00	538,32
184,00	568,75
185,00	571,09
186,00	561,73
187,00	528,96
188,00	561,73
189,00	531,30
190,00	547,69
191,00	543,00
192,00	533,64
193,00	580,45
194,00	540,66
195,00	514,92
196,00	545,34
197,00	557,05
198,00	526,62
199,00	561,73
200,00	550,03
201,00	582,79
202,00	524,28
203,00	561,73
204,00	531,30
205,00	566,41
206,00	559,39
207,00	535,98
208,00	564,07
209,00	608,54
210,00	538,32
211,00	568,75
212,00	538,32
213,00	463,43
214,00	538,32
215,00	582,79
216,00	568,75
217,00	535,98
218,00	552,37
219,00	594,50
220,00	552,37
221,00	571,09
222,00	587,47
223,00	550,03
224,00	559,39
225,00	454,06
226,00	540,66
227,00	535,98
228,00	547,69
229,00	594,50
230,00	552,37
231,00	493,85
232,00	568,75
233,00	559,39
234,00	634,29
235,00	587,47
236,00	587,47
237,00	578,11
238,00	561,73
239,00	589,82
240,00	582,79
241,00	589,82
242,00	559,39
243,00	566,41
244,00	552,37
245,00	552,37
246,00	575,77
247,00	610,88
248,00	547,69
249,00	531,30
250,00	596,84
251,00	587,47
252,00	592,16
253,00	514,92
254,00	596,84
255,00	622,58
256,00	580,45
257,00	596,84
258,00	496,19
259,00	550,03
260,00	566,41
261,00	571,09
262,00	552,37
263,00	585,13
264,00	594,50
265,00	580,45
266,00	540,66
267,00	554,71
268,00	561,73
269,00	585,13
270,00	531,30
271,00	543,00
272,00	594,50
273,00	575,77
274,00	557,05
275,00	580,45
276,00	512,58
277,00	571,09
278,00	575,77
279,00	545,34
280,00	594,50
281,00	559,39
282,00	589,82
283,00	524,28
284,00	547,69
285,00	650,67
286,00	594,50
287,00	547,69
288,00	566,41
289,00	573,43
290,00	543,00
291,00	601,52
292,00	571,09
293,00	535,98
294,00	627,26
295,00	580,45
296,00	624,92
297,00	547,69
298,00	535,98
299,00	594,50
300,00	510,24
301,00	585,13
302,00	550,03
303,00	561,73
304,00	559,39
305,00	566,41
306,00	538,32
307,00	552,37
308,00	578,11
309,00	592,16
310,00	627,26
311,00	566,41
312,00	559,39
313,00	582,79
314,00	589,82
315,00	613,22
316,00	688,12
317,00	613,22
318,00	575,77
319,00	589,82
320,00	535,98
321,00	631,94
322,00	566,41
323,00	564,07
324,00	592,16
325,00	615,56
326,00	550,03
327,00	568,75
328,00	594,50
329,00	596,84
330,00	603,86
331,00	603,86
332,00	592,16
333,00	599,18
334,00	596,84
335,00	587,47
336,00	484,49
337,00	580,45
338,00	622,58
339,00	559,39
340,00	582,79
341,00	592,16
342,00	500,87
343,00	552,37
344,00	458,74
345,00	601,52
346,00	589,82
347,00	496,19
348,00	613,22
349,00	566,41
350,00	627,26
351,00	585,13
352,00	634,29
353,00	550,03
354,00	585,13
355,00	533,64
356,00	636,63
357,00	582,79
358,00	507,90
359,00	613,22
360,00	578,11
361,00	559,39
362,00	543,00
363,00	540,66
364,00	578,11
365,00	603,86
366,00	582,79
367,00	552,37
368,00	571,09
369,00	554,71
370,00	547,69
371,00	521,94
372,00	543,00
373,00	589,82
374,00	533,64
375,00	592,16
376,00	557,05
377,00	552,37
378,00	603,86
379,00	582,79
380,00	613,22
381,00	645,99
382,00	603,86
383,00	564,07
384,00	519,60
385,00	533,64
386,00	564,07
387,00	564,07
388,00	575,77
389,00	585,13
390,00	603,86
391,00	617,90
392,00	571,09
393,00	631,94
394,00	573,43
395,00	573,43
396,00	578,11
397,00	624,92
398,00	545,34
399,00	608,54
400,00	592,16
401,00	528,96
402,00	594,50
403,00	613,22
404,00	545,34
405,00	606,20
406,00	514,92
407,00	568,75
408,00	610,88
409,00	575,77
410,00	599,18
411,00	580,45
412,00	596,84
413,00	521,94
414,00	543,00
415,00	643,65
416,00	545,34
417,00	566,41
418,00	631,94
419,00	573,43
420,00	533,64
421,00	610,88
422,00	568,75
423,00	531,30
424,00	559,39
425,00	620,24
426,00	620,24
427,00	589,82
428,00	573,43
429,00	603,86
430,00	592,16
431,00	629,60
432,00	643,65
433,00	580,45
434,00	596,84
435,00	571,09
436,00	566,41
437,00	585,13
438,00	627,26
439,00	512,58
440,00	606,20
441,00	638,97
442,00	557,05
443,00	589,82
444,00	610,88
445,00	629,60
446,00	592,16
447,00	589,82
448,00	606,20
449,00	638,97
450,00	578,11
451,00	613,22
452,00	582,79
453,00	578,11
454,00	610,88
455,00	585,13
456,00	613,22
457,00	615,56
458,00	587,47
459,00	606,20
460,00	629,60
461,00	624,92
462,00	631,94
463,00	585,13
464,00	641,31
465,00	674,07
466,00	624,92
467,00	596,84
468,00	571,09
469,00	568,75
470,00	603,86
471,00	603,86
472,00	561,73
473,00	627,26
474,00	631,94
475,00	599,18
476,00	620,24
477,00	566,41
478,00	617,90
479,00	629,60
480,00	631,94
481,00	631,94
482,00	519,60
483,00	557,05
484,00	645,99
485,00	535,98
486,00	629,60
487,00	571,09
488,00	554,71
489,00	674,07
490,00	634,29
491,00	589,82
492,00	596,84
493,00	641,31
494,00	582,79
495,00	634,29
496,00	643,65
497,00	606,20
498,00	634,29
499,00	613,22
500,00	653,01
501,00	631,94
502,00	608,54
503,00	573,43
504,00	573,43
505,00	599,18
506,00	603,86
507,00	610,88
508,00	674,07
509,00	587,47
510,00	585,13
511,00	650,67
512,00	524,28
513,00	599,18
514,00	603,86
515,00	613,22
516,00	573,43
517,00	655,35
518,00	624,92
519,00	568,75
520,00	610,88
521,00	615,56
522,00	603,86
523,00	606,20
524,00	559,39
525,00	592,16
526,00	620,24
527,00	641,31
528,00	603,86
529,00	629,60
530,00	645,99
531,00	662,37
532,00	582,79
533,00	575,77
534,00	601,52
535,00	610,88
536,00	573,43
537,00	587,47
538,00	594,50
539,00	631,94
540,00	615,56
541,00	662,37
542,00	648,33
543,00	664,71
544,00	629,60
545,00	578,11
546,00	641,31
547,00	575,77
548,00	636,63
549,00	573,43
550,00	622,58
551,00	601,52
552,00	603,86
553,00	688,12
554,00	669,39
555,00	648,33
556,00	667,05
557,00	669,39
558,00	645,99
559,00	589,82
560,00	608,54
561,00	641,31
562,00	610,88
563,00	601,52
564,00	660,03
565,00	638,97
566,00	706,84
567,00	645,99
568,00	655,35
569,00	622,58
570,00	676,41
571,00	692,80
572,00	671,73
573,00	657,69
574,00	650,67
575,00	650,67
576,00	613,22
577,00	627,26
578,00	599,18
579,00	713,86
580,00	643,65
581,00	713,86
582,00	631,94
583,00	608,54
584,00	674,07
585,00	697,48
586,00	575,77
587,00	678,76
588,00	634,29
589,00	667,05
590,00	695,14
591,00	730,25
592,00	692,80
593,00	667,05
594,00	636,63
595,00	648,33
596,00	627,26
597,00	683,44
598,00	660,03
599,00	692,80
600,00	706,84
601,00	753,65
602,00	746,63
603,00	730,25
604,00	777,06
605,00	685,78
606,00	704,50
607,00	702,16
608,00	770,04
609,00	676,41
610,00	739,61
611,00	767,70
612,00	744,29
613,00	772,38
614,00	798,12
615,00	772,38
616,00	816,85
617,00	739,61
618,00	758,33
619,00	833,23
620,00	849,61
621,00	791,10
622,00	751,31
623,00	856,64
624,00	887,06
625,00	868,34
626,00	877,70
627,00	912,81
628,00	922,17
629,00	898,77
630,00	943,24
631,00	1018,13
632,00	997,07
633,00	938,55
634,00	968,98
635,00	1025,15
636,00	1102,39
637,00	1074,31
638,00	1130,48
639,00	1156,22
640,00	1121,12
641,00	1188,99
642,00	1289,64
643,00	1249,85
644,00	1217,08
645,00	1291,98
646,00	1362,19
647,00	1357,51
648,00	1533,05
649,00	1582,20
650,00	1516,67
651,00	1526,03
652,00	1645,40
653,00	1724,97
654,00	1879,45
655,00	1811,57
656,00	1966,05
657,00	2001,16
658,00	2024,56
659,00	2235,21
660,00	2242,23
661,00	2392,03
662,00	2457,56
663,00	2623,74
664,00	2560,55
665,00	2745,45
666,00	2864,82
667,00	3019,29
668,00	3073,12
669,00	3342,28
670,00	3349,31
671,00	3489,74
672,00	3695,71
673,00	3864,22
674,00	4121,68
675,00	4255,09
676,00	4334,67
677,00	4660,01
678,00	4912,78
679,00	5111,73
680,00	5074,28
681,00	5451,11
682,00	5565,79
683,00	5865,38
684,00	6204,76
685,00	6380,30
686,00	6513,71
687,00	7002,88
688,00	7253,32
689,00	7618,44
690,00	7843,14
691,00	8191,88
692,00	8425,93
693,00	8896,38
694,00	9245,12
695,00	9540,02
696,00	9942,60
697,00	10422,41
698,00	10773,49
699,00	11138,61
700,00	11793,96
701,00	11985,88
702,00	12533,57
703,00	13259,13
704,00	13401,91
705,00	14108,75
706,00	14597,92
707,00	15145,61
708,00	15470,94
709,00	16306,51
710,00	16842,50
711,00	17584,44
712,00	18607,26
713,00	18724,29
714,00	19777,53
715,00	20257,34
716,00	20657,57
717,00	21989,33
718,00	22373,18
719,00	23798,57
720,00	24641,16
721,00	25783,34
722,00	26920,84
723,00	27143,19
724,00	27564,49
725,00	29802,04
726,00	29869,92
727,00	30808,47
728,00	31477,86
729,00	32636,43
730,00	34171,82
731,00	34628,23
732,00	36294,69
733,00	36772,16
734,00	38527,56
735,00	39985,71
736,00	39690,80
737,00	40016,14
738,00	41148,96
739,00	41310,46
740,00	41579,62
741,00	41942,40
742,00	42672,65
743,00	43283,53
744,00	42274,76
745,00	41872,18
746,00	43185,22
747,00	44186,97
748,00	43023,73
749,00	42789,67
750,00	41270,67
751,00	40495,95
752,00	41759,84
753,00	40229,13
754,00	39498,88
755,00	39206,31
756,00	38223,29
757,00	38078,18
758,00	36992,17
759,00	35194,64
760,00	34822,49
761,00	34162,46
762,00	32617,71
763,00	31819,58
764,00	30321,64
765,00	30251,42
766,00	28624,75
767,00	28112,17
768,00	28465,60
769,00	27307,03
770,00	26389,54
771,00	25296,51
772,00	24950,11
773,00	25118,63
774,00	24116,88
775,00	23365,57
776,00	23770,48
777,00	23276,63
778,00	22249,13
779,00	22265,52
780,00	22209,34
781,00	21642,93
782,00	21158,44
783,00	20905,66
784,00	20442,24
785,00	21144,40
786,00	20912,69
787,00	20943,11
788,00	20627,14
789,00	20407,13
790,00	19777,53
791,00	20004,56
792,00	19428,79
793,00	19112,81
794,00	18867,06
795,00	19286,01
796,00	19286,01
797,00	18731,31
798,00	18174,26
799,00	18738,33
800,00	17830,20
801,00	17970,63
802,00	17261,45
803,00	16982,93
804,00	16739,51
805,00	16620,14
806,00	16142,67
807,00	15957,77
808,00	16187,14
809,00	15365,62
810,00	15309,44
811,00	14810,91
812,00	15098,80
813,00	14604,94
814,00	14359,19
815,00	14551,11
816,00	14417,70
817,00	13879,38
818,00	14106,41
819,00	13425,31
820,00	13788,10
821,00	13429,99
822,00	13439,36
823,00	13233,39
824,00	13228,71
825,00	13338,71
826,00	13078,91
827,00	13118,70
828,00	13256,79
829,00	13228,71
830,00	12847,20
831,00	12685,70
832,00	12769,96
833,00	12641,23
834,00	12926,78
835,00	12784,01
836,00	13025,08
837,00	12727,83
838,00	12788,69
839,00	12931,46
840,00	12725,49
841,00	12779,32
842,00	12886,99
843,00	12886,99
844,00	12781,67
845,00	12676,34
846,00	12713,79
847,00	12830,82
848,00	12627,19
849,00	12664,64
850,00	13015,72
851,00	13081,25
852,00	13270,84
853,00	13312,97
854,00	13156,15
855,00	13341,05
856,00	13334,03
857,00	13530,64
858,00	13460,42
859,00	13640,64
860,00	13710,86
861,00	14052,58
862,00	13982,36
863,00	13839,59
864,00	14242,16
865,00	14501,96
866,00	14274,93
867,00	14569,83
868,00	14633,03
869,00	14902,19
870,00	14677,50
871,00	15393,70
872,00	15440,51
873,00	15550,52
874,00	15967,13
875,00	15873,51
876,00	15791,59
877,00	16322,90
878,00	16582,70
879,00	16971,22
880,00	16915,05
881,00	17453,37
882,00	17415,93
883,00	17963,61
884,00	17968,29
885,00	17987,02
886,00	18352,14
887,00	18342,78
888,00	18380,23
889,00	18939,62
890,00	19297,72
891,00	19683,91
892,00	19742,42
893,00	20037,33
894,00	19985,83
895,00	20262,02
896,00	20638,84
897,00	20790,98
898,00	20891,62
899,00	21598,46
900,00	21572,72
901,00	22045,51
902,00	21703,79
903,00	22160,19
904,00	22253,81
905,00	22642,34
906,00	23030,87
907,00	22824,90
908,00	23073,00
909,00	23414,72
910,00	23414,72
911,00	23899,21
912,00	24372,00
913,00	23983,47
914,00	24596,69
915,00	24844,79
916,00	24828,40
917,00	25062,46
918,00	25205,23
919,00	25338,64
920,00	25909,73
921,00	25394,81
922,00	25949,52
923,00	26300,60
924,00	26050,16
925,00	26148,46
926,00	26316,98
927,00	26696,15
928,00	26665,72
929,00	27267,24
930,00	27255,54
931,00	27442,78
932,00	27346,82
933,00	27587,89
934,00	27552,79
935,00	27927,27
936,00	27498,95
937,00	28554,54
938,00	28095,79
939,00	28224,52
940,00	28837,74
941,00	28404,74
942,00	28449,21
943,00	28804,97
944,00	28947,75
945,00	28814,34
946,00	29099,88
947,00	29109,24
948,00	29436,92
949,00	28975,83
950,00	29256,70
951,00	29230,95
952,00	29266,06
953,00	29317,55
954,00	29200,52
955,00	29619,48
956,00	29401,81
957,00	29778,64
958,00	29876,94
959,00	29598,41
960,00	29682,67
961,00	29830,13
962,00	30019,71
963,00	30309,94
964,00	30120,35
965,00	29905,02
966,00	29991,62
967,00	29792,68
968,00	29556,28
969,00	30263,13
970,00	29933,11
971,00	30139,08
972,00	29926,09
973,00	30096,95
974,00	30204,61
975,00	30354,41
976,00	30221,00
977,00	30258,45
978,00	30312,28
979,00	30340,36
980,00	30113,33
981,00	30338,02
982,00	30178,87
983,00	30108,65
984,00	30167,16
985,00	30071,20
986,00	30293,55
987,00	30059,50
988,00	30277,17
989,00	30206,95
990,00	29633,52
991,00	30043,12
992,00	30162,48
993,00	29813,74
994,00	30078,22
995,00	30080,56
996,00	30066,52
997,00	30176,53
998,00	30356,75
999,00	30082,91
1000,00	30429,30
1001,00	30483,14
1002,00	30466,75
1003,00	30246,74
1004,00	30031,41
1005,00	30396,54
1006,00	30314,62
1007,00	30560,37
1008,00	29802,04
1009,00	29790,34
1010,00	29703,74
1011,00	30167,16
1012,00	29553,94
1013,00	30000,99
1014,00	30012,69
1015,00	30167,16
1016,00	29666,29
1017,00	29579,69
1018,00	29631,18
1019,00	29553,94
1020,00	29977,58
1021,00	29481,39
1022,00	29663,95
1023,00	29860,55
1024,00	29797,36
1025,00	29713,10
1026,00	29778,64
1027,00	29205,20
1028,00	29064,77
1029,00	29294,14
1030,00	29436,92
1031,00	29326,91
1032,00	29303,51
1033,00	29139,67
1034,00	29474,37
1035,00	29228,61
1036,00	28849,44
1037,00	28549,85
1038,00	28783,91
1039,00	28889,23
1040,00	28521,77
1041,00	28549,85
1042,00	28432,83
1043,00	28299,42
1044,00	28180,05
1045,00	28496,02
1046,00	28236,22
1047,00	27957,70
1048,00	27948,34
1049,00	28481,98
1050,00	28119,20
1051,00	27803,22
1052,00	27850,03
1053,00	27990,47
1054,00	27850,03
1055,00	27468,53
1056,00	27896,85
1057,00	27550,45
1058,00	27454,48
1059,00	27300,01
1060,00	26998,08
1061,00	26991,06
1062,00	27005,10
1063,00	27051,91
1064,00	27241,50
1065,00	26757,00
1066,00	27054,25
1067,00	26675,09
1068,00	26347,41
1069,00	26391,88
1070,00	26082,93
1071,00	26281,88
1072,00	26183,57
1073,00	25993,99
1074,00	25907,39
1075,00	26071,23
1076,00	25507,16
1077,00	25855,90
1078,00	25479,07
1079,00	25195,87
1080,00	25223,95
1081,00	24987,56
1082,00	24940,75
1083,00	24847,13
1084,00	24428,17
1085,00	25137,35
1086,00	24624,78
1087,00	24856,49
1088,00	24788,61
1089,00	24194,12
1090,00	24444,56
1091,00	24292,42
1092,00	24266,67
1093,00	23997,51
1094,00	24091,13
1095,00	23707,29
1096,00	23585,58
1097,00	23426,42
1098,00	23131,51
1099,00	23548,13
1100,00	23316,42
1101,00	23260,24
1102,00	23044,91
1103,00	23068,32
1104,00	23194,71
1105,00	22623,62
1106,00	22284,24
1107,00	22752,35
1108,00	22684,47
1109,00	22768,73
1110,00	22492,55
1111,00	22094,66
1112,00	22097,00
1113,00	22033,80
1114,00	21790,39
1115,00	21886,35
1116,00	21942,52
1117,00	21764,64
1118,00	21310,58
1119,00	20975,88
1120,00	21355,05
1121,00	20950,14
1122,00	21010,99
1123,00	21097,59
1124,00	20765,23
1125,00	20938,43
1126,00	20842,47
1127,00	20783,96
1128,00	20486,71
1129,00	20247,97
1130,00	20283,08
1131,00	20006,90
1132,00	20294,79
1133,00	19733,06
1134,00	19831,36
1135,00	19693,27
1136,00	19403,04
1137,00	19445,17
1138,00	19346,87
1139,00	19470,92
1140,00	19138,56
1141,00	18972,38
1142,00	18728,97
1143,00	18890,46
1144,00	18785,14
1145,00	18579,17
1146,00	18658,75
1147,00	18801,52
1148,00	18448,10
1149,00	18113,41
1150,00	18181,28
1151,00	18080,64
1152,00	17649,98
1153,00	17556,36
1154,00	17537,63
1155,00	17591,47
1156,00	17731,90
1157,00	17411,25
1158,00	17252,09
1159,00	17050,80
1160,00	17057,82
1161,00	17062,51
1162,00	16828,45
1163,00	16411,84
1164,00	16655,25
1165,00	16601,42
1166,00	16582,70
1167,00	16287,79
1168,00	16058,42
1169,00	15990,54
1170,00	15995,22
1171,00	15948,41
1172,00	15693,29
1173,00	15571,58
1174,00	15435,83
1175,00	15382,00
1176,00	14977,09
1177,00	15316,47
1178,00	15051,99
1179,00	14881,13
1180,00	14698,56
1181,00	14363,87
1182,00	14260,88
1183,00	14438,76
1184,00	14174,28
1185,00	13907,46
1186,00	13923,85
1187,00	13991,72
1188,00	13860,65
1189,00	13474,46
1190,00	13757,67
1191,00	13383,18
1192,00	13577,45
1193,00	13383,18
1194,00	12971,25
1195,00	13069,55
1196,00	13071,89
1197,00	12800,39
1198,00	12589,74
1199,00	12589,74
1200,00	12341,64
1201,00	12418,88
1202,00	12343,99
1203,00	12126,32
1204,00	12205,89
1205,00	12093,55
1206,00	12123,98
1207,00	11775,24
1208,00	11798,64
1209,00	11571,61
1210,00	11470,97
1211,00	11613,74
1212,00	11470,97
1213,00	11386,71
1214,00	11372,66
1215,00	11260,32
1216,00	11122,23
1217,00	11176,06
1218,00	11246,27
1219,00	10927,96
1220,00	11026,26
1221,00	10984,13
1222,00	10799,23
1223,00	10785,19
1224,00	10736,04
1225,00	10581,56
1226,00	10370,91
1227,00	10560,50
1228,00	10307,72
1229,00	10333,47
1230,00	10068,98
1231,00	10047,92
1232,00	10054,94
1233,00	10066,64
1234,00	9797,48
1235,00	9879,40
1236,00	9731,95
1237,00	9666,41
1238,00	9369,16
1239,00	9434,70
1240,00	9408,95
1241,00	9125,75
1242,00	9270,86
1243,00	9153,84
1244,00	9090,64
1245,00	9036,81
1246,00	8779,35
1247,00	8971,27
1248,00	8887,01
1249,00	8861,27
1250,00	8538,27
1251,00	8456,36
1252,00	8503,17
1253,00	8362,73
1254,00	8304,22
1255,00	8416,57
1256,00	8294,86
1257,00	8121,66
1258,00	8072,51
1259,00	8051,44
1260,00	7983,57
1261,00	7843,14
1262,00	7843,14
1263,00	7702,70
1264,00	7623,12
1265,00	7353,96
1266,00	7691,00
1267,00	7400,77
1268,00	7297,79
1269,00	7358,64
1270,00	7171,40
1271,00	7318,86
1272,00	7040,33
1273,00	7124,59
1274,00	7023,95
1275,00	6801,60
1276,00	6794,58
1277,00	6813,30
1278,00	6796,92
1279,00	6920,96
1280,00	6597,97
1281,00	6693,93
1282,00	6555,84
1283,00	6466,90
1284,00	6394,34
1285,00	6225,82
1286,00	6092,41
1287,00	6256,25
1288,00	6207,10
1289,00	6113,48
1290,00	5942,62
1291,00	6022,20
1292,00	5902,83
1293,00	5841,98
1294,00	5888,79
1295,00	5874,74
1296,00	5722,61
1297,00	5781,12
1298,00	5762,40
1299,00	5598,56
1300,00	5621,97
1301,00	5575,16
1302,00	5535,37
1303,00	5411,32
1304,00	5315,36
1305,00	5200,67
1306,00	5270,89
1307,00	5221,74
1308,00	5172,58
1309,00	5121,09
1310,00	5083,64
1311,00	5018,11
1312,00	4954,91
1313,00	4767,67
1314,00	4858,95
1315,00	4898,74
1316,00	4912,78
1317,00	4887,04
1318,00	4922,15
1319,00	4720,86
1320,00	4739,58
1321,00	4704,48
1322,00	4732,56
1323,00	4517,23
1324,00	4479,79
1325,00	4465,74
1326,00	4313,61
1327,00	4397,87
1328,00	4372,12
1329,00	4320,63
1330,00	4159,13
1331,00	4203,60
1332,00	4180,20
1333,00	4161,47
1334,00	4109,98
1335,00	4046,79
1336,00	4175,52
1337,00	3819,75
1338,00	3955,51
1339,00	3859,54
1340,00	3939,12
1341,00	3950,82
1342,00	3789,33
1343,00	3779,97
1344,00	3761,24
1345,00	3826,78
1346,00	3702,73
1347,00	3662,94
1348,00	3618,47
1349,00	3592,72
1350,00	3480,38
1351,00	3517,83
1352,00	3358,67
1353,00	3454,63
1354,00	3419,52
1355,00	3274,41
1356,00	3316,54
1357,00	3318,88
1358,00	3391,44
1359,00	3293,13
1360,00	3239,30
1361,00	3166,74
1362,00	3227,60
1363,00	3145,68
1364,00	3000,57
1365,00	3115,25
1366,00	3045,04
1367,00	3016,95
1368,00	2977,16
1369,00	2916,31
1370,00	2899,92
1371,00	3007,59
1372,00	2813,32
1373,00	2867,16
1374,00	2754,81
1375,00	2818,00
1376,00	2839,07
1377,00	2768,85
1378,00	2656,51
1379,00	2630,76
1380,00	2614,38
1381,00	2576,93
1382,00	2576,93
1383,00	2663,53
1384,00	2532,46
1385,00	2452,88
1386,00	2523,10
1387,00	2438,84
1388,00	2502,03
1389,00	2492,67
1390,00	2495,01
1391,00	2403,73
1392,00	2277,34
1393,00	2427,14
1394,00	2319,47
1395,00	2260,96
1396,00	2399,05
1397,00	2225,85
1398,00	2324,15
1399,00	2256,28
1400,00	2143,93
1401,00	2134,57
1402,00	2179,04
1403,00	2186,06
1404,00	2162,66
1405,00	2073,71
1406,00	2132,23
1407,00	2022,22
1408,00	2080,74
1409,00	2052,65
1410,00	2069,03
1411,00	2033,93
1412,00	2008,18
1413,00	1989,46
1414,00	2003,50
1415,00	2003,50
1416,00	1973,07
1417,00	1944,99
1418,00	1944,99
1419,00	1881,79
1420,00	1968,39
1421,00	1830,30
1422,00	1858,39
1423,00	1823,28
1424,00	1783,49
1425,00	1776,47
1426,00	1753,06
1427,00	1727,32
1428,00	1804,55
1429,00	1827,96
1430,00	1710,93
1431,00	1717,95
1432,00	1706,25
1433,00	1717,95
1434,00	1764,76
1435,00	1610,29
1436,00	1579,86
1437,00	1612,63
1438,00	1572,84
1439,00	1668,80
1440,00	1661,78
1441,00	1582,20
1442,00	1617,31
1443,00	1528,37
1444,00	1647,74
1445,00	1579,86
1446,00	1572,84
1447,00	1502,62
1448,00	1451,13
1449,00	1537,73
1450,00	1561,14
1451,00	1554,12
1452,00	1380,92
1453,00	1444,11
1454,00	1476,88
1455,00	1425,39
1456,00	1432,41
1457,00	1409,00
1458,00	1404,32
1459,00	1336,45
1460,00	1409,00
1461,00	1439,43
1462,00	1418,36
1463,00	1306,02
1464,00	1355,17
1465,00	1336,45
1466,00	1352,83
1467,00	1291,98
1468,00	1270,91
1469,00	1303,68
1470,00	1219,42
1471,00	1273,25
1472,00	1270,91
1473,00	1287,29
1474,00	1284,95
1475,00	1317,72
1476,00	1268,57
1477,00	1118,78
1478,00	1315,38
1479,00	1186,65
1480,00	1205,38
1481,00	1296,66
1482,00	1125,80
1483,00	1158,57
1484,00	1170,27
1485,00	1207,72
1486,00	1249,85
1487,00	1156,22
1488,00	1184,31
1489,00	1095,37
1490,00	1137,50
1491,00	1135,16
1492,00	1111,75
1493,00	1121,12
1494,00	1083,67
1495,00	1055,58
1496,00	1107,07
1497,00	1050,90
1498,00	1081,33
1499,00	1081,33
1500,00	1144,52
1501,00	1104,73
1502,00	1090,69
1503,00	1046,22
1504,00	1013,45
1505,00	1060,26
1506,00	1018,13
1507,00	1029,84
1508,00	1006,43
1509,00	1004,09
1510,00	983,02
1511,00	1060,26
1512,00	1043,88
1513,00	947,92
1514,00	1020,47
1515,00	987,71
1516,00	1022,81
1517,00	1039,20
1518,00	940,90
1519,00	924,51
1520,00	985,37
1521,00	978,34
1522,00	973,66
1523,00	999,41
1524,00	875,36
1525,00	873,02
1526,00	943,24
1527,00	812,17
1528,00	884,72
1529,00	926,85
1530,00	840,25
1531,00	901,11
1532,00	919,83
1533,00	866,00
1534,00	847,27
1535,00	884,72
1536,00	926,85
1537,00	861,32
1538,00	905,79
1539,00	884,72
1540,00	828,55
1541,00	917,49
1542,00	821,53
1543,00	873,02
1544,00	854,30
1545,00	891,74
1546,00	746,63
1547,00	800,46
1548,00	795,78
1549,00	830,89
1550,00	870,68
1551,00	816,85
1552,00	795,78
1553,00	791,10
1554,00	748,97
1555,00	730,25
1556,00	835,57
1557,00	760,67
1558,00	767,70
1559,00	800,46
1560,00	767,70
1561,00	823,87
1562,00	753,65
1563,00	854,30
1564,00	765,36
1565,00	781,74
1566,00	793,44
1567,00	720,88
1568,00	777,06
1569,00	734,93
1570,00	718,54
1571,00	814,51
1572,00	751,31
1573,00	755,99
1574,00	758,33
1575,00	704,50
1576,00	730,25
1577,00	772,38
1578,00	713,86
1579,00	739,61
1580,00	725,57
1581,00	723,23
1582,00	725,57
1583,00	748,97
1584,00	690,46
1585,00	643,65
1586,00	704,50
1587,00	641,31
1588,00	739,61
1589,00	720,88
1590,00	648,33
1591,00	697,48
1592,00	662,37
1593,00	690,46
1594,00	678,76
1595,00	631,94
1596,00	681,10
1597,00	662,37
1598,00	683,44
1599,00	655,35
1600,00	676,41
1601,00	681,10
1602,00	610,88
1603,00	636,63
1604,00	678,76
1605,00	634,29
1606,00	603,86
1607,00	629,60
1608,00	643,65
1609,00	617,90
1610,00	631,94
1611,00	655,35
1612,00	683,44
1613,00	601,52
1614,00	631,94
1615,00	613,22
1616,00	678,76
1617,00	662,37
1618,00	608,54
1619,00	657,69
1620,00	662,37
1621,00	613,22
1622,00	571,09
1623,00	643,65
1624,00	648,33
1625,00	582,79
1626,00	627,26
1627,00	594,50
1628,00	636,63
1629,00	608,54
1630,00	610,88
1631,00	545,34
1632,00	617,90
1633,00	636,63
1634,00	610,88
1635,00	645,99
1636,00	643,65
1637,00	540,66
1638,00	636,63
1639,00	559,39
1640,00	566,41
1641,00	580,45
1642,00	615,56
1643,00	564,07
1644,00	606,20
1645,00	578,11
1646,00	615,56
1647,00	543,00
1648,00	610,88
1649,00	578,11
1650,00	580,45
1651,00	528,96
1652,00	592,16
1653,00	528,96
1654,00	573,43
1655,00	519,60
1656,00	585,13
1657,00	645,99
1658,00	613,22
1659,00	599,18
1660,00	620,24
1661,00	601,52
1662,00	543,00
1663,00	547,69
1664,00	603,86
1665,00	603,86
1666,00	594,50
1667,00	575,77
1668,00	566,41
1669,00	528,96
1670,00	543,00
1671,00	606,20
1672,00	550,03
1673,00	599,18
1674,00	503,22
1675,00	638,97
1676,00	559,39
1677,00	550,03
1678,00	587,47
1679,00	547,69
1680,00	561,73
1681,00	486,83
1682,00	601,52
1683,00	543,00
1684,00	582,79
1685,00	585,13
1686,00	545,34
1687,00	531,30
1688,00	507,90
1689,00	557,05
1690,00	599,18
1691,00	559,39
1692,00	538,32
1693,00	578,11
1694,00	557,05
1695,00	552,37
1696,00	580,45
1697,00	594,50
1698,00	505,56
1699,00	575,77
1700,00	526,62
1701,00	573,43
1702,00	557,05
1703,00	545,34
1704,00	514,92
1705,00	486,83
1706,00	528,96
1707,00	500,87
1708,00	566,41
1709,00	545,34
1710,00	505,56
1711,00	517,26
1712,00	596,84
1713,00	538,32
1714,00	566,41
1715,00	550,03
1716,00	620,24
1717,00	566,41
1718,00	500,87
1719,00	521,94
1720,00	514,92
1721,00	533,64
1722,00	624,92
1723,00	493,85
1724,00	514,92
1725,00	552,37
1726,00	557,05
1727,00	507,90
1728,00	475,13
1729,00	561,73
1730,00	528,96
1731,00	489,17
1732,00	514,92
1733,00	543,00
1734,00	491,51
1735,00	524,28
1736,00	538,32
1737,00	493,85
1738,00	528,96
1739,00	456,40
1740,00	557,05
1741,00	521,94
1742,00	568,75
1743,00	596,84
1744,00	552,37
1745,00	498,53
1746,00	540,66
1747,00	510,24
1748,00	477,47
1749,00	557,05
1750,00	454,06
1751,00	514,92
1752,00	514,92
1753,00	538,32
1754,00	505,56
1755,00	486,83
1756,00	547,69
1757,00	547,69
1758,00	507,90
1759,00	484,49
1760,00	533,64
1761,00	472,79
1762,00	514,92
1763,00	461,09
1764,00	489,17
1765,00	552,37
1766,00	468,11
1767,00	550,03
1768,00	514,92
1769,00	524,28
1770,00	484,49
1771,00	514,92
1772,00	543,00
1773,00	510,24
1774,00	526,62
1775,00	526,62
1776,00	421,30
1777,00	496,19
1778,00	592,16
1779,00	519,60
1780,00	470,45
1781,00	505,56
1782,00	407,25
1783,00	550,03
1784,00	491,51
1785,00	479,81
1786,00	475,13
1787,00	540,66
1788,00	535,98
1789,00	521,94
1790,00	451,72
1791,00	475,13
1792,00	524,28
1793,00	477,47
1794,00	514,92
1795,00	566,41
1796,00	472,79
1797,00	489,17
1798,00	479,81
1799,00	486,83
1800,00	479,81
1801,00	507,90
1802,00	524,28
1803,00	498,53
1804,00	521,94
1805,00	475,13
1806,00	482,15
1807,00	479,81
1808,00	463,43
1809,00	580,45
1810,00	519,60
1811,00	519,60
1812,00	552,37
1813,00	507,90
1814,00	491,51
1815,00	507,90
1816,00	535,98
1817,00	500,87
1818,00	437,68
1819,00	507,90
1820,00	519,60
1821,00	543,00
1822,00	500,87
1823,00	500,87
1824,00	491,51
1825,00	477,47
1826,00	491,51
1827,00	496,19
1828,00	512,58
1829,00	479,81
1830,00	461,09
1831,00	507,90
1832,00	505,56
1833,00	423,64
1834,00	496,19
1835,00	486,83
1836,00	550,03
1837,00	543,00
1838,00	552,37
1839,00	521,94
1840,00	493,85
1841,00	533,64
1842,00	528,96
1843,00	498,53
1844,00	461,09
1845,00	470,45
1846,00	505,56
1847,00	465,77
1848,00	505,56
1849,00	517,26
1850,00	500,87
1851,00	526,62
1852,00	535,98
1853,00	477,47
1854,00	470,45
1855,00	472,79
1856,00	491,51
1857,00	484,49
1858,00	505,56
1859,00	496,19
1860,00	517,26
1861,00	557,05
1862,00	463,43
1863,00	486,83
1864,00	514,92
1865,00	428,32
1866,00	503,22
1867,00	454,06
1868,00	535,98
1869,00	540,66
1870,00	531,30
1871,00	540,66
1872,00	484,49
1873,00	470,45
1874,00	458,74
1875,00	519,60
1876,00	559,39
1877,00	496,19
1878,00	496,19
1879,00	498,53
1880,00	510,24
1881,00	503,22
1882,00	482,15
1883,00	521,94
1884,00	543,00
1885,00	496,19
1886,00	484,49
1887,00	505,56
1888,00	500,87
1889,00	500,87
1890,00	463,43
1891,00	491,51
1892,00	545,34
1893,00	514,92
1894,00	489,17
1895,00	440,02
1896,00	505,56
1897,00	524,28
1898,00	482,15
1899,00	510,24
1900,00	493,85
1901,00	489,17
1902,00	477,47
1903,00	489,17
1904,00	528,96
1905,00	561,73
1906,00	470,45
1907,00	528,96
1908,00	477,47
1909,00	421,30
1910,00	479,81
1911,00	486,83
1912,00	437,68
1913,00	545,34
1914,00	543,00
1915,00	568,75
1916,00	503,22
1917,00	482,15
1918,00	486,83
1919,00	557,05
1920,00	472,79
1921,00	479,81
1922,00	500,87
1923,00	454,06
1924,00	435,34
1925,00	538,32
1926,00	547,69
1927,00	528,96
1928,00	514,92
1929,00	510,24
1930,00	475,13
1931,00	456,40
1932,00	470,45
1933,00	437,68
1934,00	458,74
1935,00	505,56
1936,00	437,68
1937,00	463,43
1938,00	514,92
1939,00	540,66
1940,00	468,11
1941,00	472,79
1942,00	498,53
1943,00	528,96
1944,00	514,92
1945,00	524,28
1946,00	566,41
1947,00	503,22
1948,00	486,83
1949,00	402,57
1950,00	524,28
1951,00	496,19
1952,00	486,83
1953,00	533,64
1954,00	482,15
1955,00	486,83
1956,00	465,77
1957,00	517,26
1958,00	545,34
1959,00	486,83
1960,00	507,90
1961,00	491,51
1962,00	491,51
1963,00	503,22
1964,00	470,45
1965,00	489,17
1966,00	468,11
1967,00	479,81
1968,00	498,53
1969,00	477,47
1970,00	482,15
1971,00	510,24
1972,00	503,22
1973,00	479,81
1974,00	440,02
1975,00	493,85
1976,00	430,66
1977,00	498,53
1978,00	512,58
1979,00	442,36
1980,00	489,17
1981,00	465,77
1982,00	484,49
1983,00	447,04
1984,00	498,53
1985,00	524,28
1986,00	533,64
1987,00	468,11
1988,00	526,62
1989,00	524,28
1990,00	423,64
1991,00	512,58
1992,00	489,17
1993,00	498,53
1994,00	442,36
1995,00	507,90
1996,00	491,51
1997,00	496,19
1998,00	486,83
1999,00	472,79
2000,00	470,45
2001,00	428,32
2002,00	486,83
2003,00	421,30
2004,00	524,28
2005,00	496,19
2006,00	573,43
2007,00	468,11
2008,00	468,11
2009,00	521,94
2010,00	425,98
2011,00	479,81
2012,00	477,47
2013,00	477,47
2014,00	524,28
2015,00	540,66
2016,00	447,04
2017,00	500,87
2018,00	475,13
2019,00	491,51
2020,00	503,22
2021,00	491,51
2022,00	409,59
2023,00	482,15
2024,00	493,85
2025,00	491,51
2026,00	533,64
2027,00	423,64
2028,00	503,22
2029,00	538,32
2030,00	472,79
2031,00	456,40
2032,00	475,13
2033,00	503,22
2034,00	458,74
2035,00	545,34
2036,00	444,70
2037,00	507,90
2038,00	458,74
2039,00	517,26
2040,00	477,47
2041,00	458,74
2042,00	503,22
2043,00	470,45
2044,00	411,93
2045,00	491,51
2046,00	510,24
2047,00	512,58
>>>>>End Processed Spectral Data<<<<<
